X,Y,Theta,Speed,Steering
0.016422515952466667,-4.428927275721643e-06,-0.0004579656265522265,0.07161124022808664,-0.02571672554920537
0.040813721170896836,-0.000320820782441576,-0.002924711990307105,0.703728965597266,-0.04762783485123512
0.15384755674202188,-0.005757451887931654,-0.027044803735098346,1.6547289655972657,-0.057971223892282
0.36162095247743636,-0.020048886892694424,-0.06239322036566122,2.6057289655972653,-0.057243351212648216
0.6630465660534678,-0.046140622367781894,-0.09313335809968784,3.4960476229041966,-0.047103400565979656
1.0387712714584185,-0.08769967494413007,-0.12609880164942958,4.076034094760781,-0.02973020611275927
1.4603887723916489,-0.14170413005634114,-0.13507776051695355,4.432353705445724,-0.006557717821882995
1.9107193088878136,-0.1989943882358311,-0.1154527411968991,4.651261681958085,0.015035696788734988
2.379968764222755,-0.24693895020364842,-0.06458676978451752,4.785749654956877,0.02944225395368482
2.8616920930200447,-0.2756579548817794,-0.009214876909457348,4.86837348241847,0.032108346742298455
3.350944726816106,-0.28031896653122146,0.04370876697493838,4.919134131955989,0.025534979738426264
3.844145946833374,-0.26548294758053426,0.05842807508865164,4.950319367748517,0.010536140464949308
4.3396581719132135,-0.2441650551948597,0.03859883799548247,4.969478281992053,-0.0057991821408889845
4.836877779397167,-0.22687728169282545,0.017116469496735783,4.9812487235379574,-0.014097103650913484
5.335271102884453,-0.2180329268314265,-0.0031987552085832823,4.988479994184324,-0.019657545968801995
5.834328062130313,-0.21878275332594257,-0.023185566017233115,4.9929225866696685,-0.021316851683536666
6.333632996887766,-0.22939233324147015,-0.04313469040962595,4.995651931062379,-0.020531987150232286
6.832849554346569,-0.24993232267017215,-0.06309805416218618,4.9973287269509505,-0.01671751578999252
7.32691736424675,-0.2801281633109457,-0.08476951164357809,4.872793929256144,-0.009491640315843639
7.801705743727903,-0.31861406257769637,-0.101787694005574,4.605931849071909,0.0004411269810548329
8.246644959964778,-0.3580678380011055,-0.08544798269096557,4.280562850247666,0.011071295038026455
8.664714958882742,-0.3916550695775142,-0.06461997662519117,4.099922239848473,0.01113579881336044
9.069502327093103,-0.4181589640009728,-0.05808908615789157,4.008335276366317,-0.046401070806568884
9.46636122633272,-0.46058218641092924,-0.17959770561710475,3.977949899626698,-0.13272870979027707
9.851061259351207,-0.5572745882852167,-0.40349372868525385,3.9662584396670946,-0.20877932026985552
10.202857360590496,-0.7375257536501582,-0.689570960841632,3.9610600433478877,-0.23780572485417925
10.493279926303702,-1.0049517955138991,-0.9728751854831917,3.9598622730930932,-0.24560552004610375
10.702733550983165,-1.3397251102884993,-1.2228679408839105,3.959694005505151,-0.21346683611813047
10.83069908220307,-1.7137263889335137,-1.4086473333366005,3.9599443067394806,-0.1586474662598467
10.893372402595094,-2.1045479028752903,-1.525699368309563,3.9644286677217804,-0.08755532004258158
10.920056563680738,-2.5009617293143895,-1.5413414351117347,3.99071526287246,-0.01373940644794567
10.944465870834511,-2.9017090264803813,-1.482103131551304,4.054409462955311,0.04539571907534484
10.995944772306588,-3.3082046245891323,-1.3689184352500583,4.165137517712538,0.08220810693586442
11.090029968541364,-3.7205783029747925,-1.2594550280930428,4.326249276300703,0.08874114401100469
11.227008472719431,-4.140005862664347,-1.1865304653425286,4.533236089608697,0.07471561743932241
11.398402971665316,-4.568463349064391,-1.1432465977368045,4.7069860801981855,0.05048502308292004
11.591443385330948,-5.003808578994692,-1.132669804951542,4.819984411886647,0.016514521125239767
11.791587335993178,-5.446024091787256,-1.1554994247965982,4.889405895850564,-0.012999557266296952
11.982978756773383,-5.898179599315057,-1.2184427111441105,4.932055573626689,-0.039099335576361936
12.148585135531953,-6.364008605824503,-1.3090086743310965,4.958257765088812,-0.047369053644085606
12.282517152562024,-6.842132737689136,-1.3670821801610737,4.97435530376241,-0.0381356295525786
12.39213673743125,-7.327802119547057,-1.3886413132110251,4.984244963248433,-0.022089658813602142
12.487009283711103,-7.817408336419827,-1.3998244123690076,4.990320759476209,-0.00750303694895333
12.578219739096482,-8.30821986510458,-1.380689828878576,4.994053476447265,0.009185480744535271
12.674177543092553,-8.79842912804801,-1.3592313972492704,4.996346702793849,0.02034657104753401
12.778687468595496,-9.287074004643994,-1.3387876300874293,4.997755565859933,0.025825482332630094
12.892713668079635,-9.773702915597339,-1.3187020557868838,4.998621112840033,0.025857373903286993
13.016412966794606,-10.258035649997407,-1.2986918699466221,4.999152868972193,0.023060469955935928
13.149771399398427,-10.739843010815868,-1.2786915908503658,4.999479557864409,0.017347341963853007
13.292741632947719,-11.21891377812942,-1.258690304888946,4.999680261957586,0.00921522718429043
13.444684014849358,-11.695235898253305,-1.2455722809178067,4.9998035662203835,-0.002146864423932874
13.598966976558224,-12.170820195054675,-1.2641633713268778,4.999879319240578,-0.013863344059634025
13.748465773664316,-12.647931575579191,-1.2855705225100158,4.999925858751367,-0.015496799997263905
13.889591459183094,-13.127587505701921,-1.3060407824787028,4.999954450694749,-0.00798630975266665
14.021923781902004,-13.609749041478079,-1.3192644804446998,4.999972016397792,0.004907181810661778
14.152223630211974,-14.092468700495603,-1.297071074207769,4.999982808036518,0.026193677846012516
14.293822933170159,-14.571968497183265,-1.2385514664471762,4.999989437971346,0.04125102067527116
14.457468262805214,-15.044367255495077,-1.176577915830325,4.999993511128068,0.04552629342611074
14.647295306038009,-15.50686217914057,-1.1195443278353636,4.999996013506465,0.03791941162789492
14.85816216339538,-15.960188221573443,-1.0964995674970635,4.999997550863869,0.02007279599208666
15.078609338744005,-16.39949632608278,-1.081680696806913,4.77780907113012,0.0027067991103209453
15.287757050118534,-16.807253982965893,-1.1027060801208963,4.285797247465891,-0.018358370735435895
15.465654680028521,-17.17542336624583,-1.1677776827648156,3.8474645041283253,-0.033279460705188245
15.607514087917625,-17.515110529778315,-1.234266332725102,3.4714191478767815,-0.037713333131303116
15.715645733885287,-17.831033518700632,-1.287577074540784,3.1770824886472626,-0.03382499965925785
15.802604415393233,-18.12779106867937,-1.306037085054736,2.994549494711835,-0.02590157152214321
15.87840969025052,-18.41387601522598,-1.325385702858654,2.926395734212038,-0.18613742775676334
15.922250721203353,-18.70119974683525,-1.5133924772613683,2.8958158127434848,-0.291882918884573
15.887568217675907,-18.98719003758468,-1.8330934959934322,2.8886546356238196,-0.33334031843523576
15.769320826952729,-19.24940139481945,-2.1408934650597686,2.8872915443988223,-0.36270008124544506
15.5746595501553,-19.46095121284639,-2.467165806774316,2.887735714368152,-0.38003673259653725
15.322849103192775,-19.59996510610911,-2.7845497343861374,2.8882666494718654,-0.35684664976064134
15.041556194197396,-19.661643345873895,-3.0543240882453473,2.8890137698024967,-0.3278814380080079
14.7535495751654,-19.64976566548478,2.9854450690274947,2.8904796652448703,-0.28833117765215566
14.474321516761993,-19.576470058511866,2.7921716833654098,2.8927943594737977,-0.23708662071979222
14.210211075849314,-19.45792284291765,2.651554916837666,2.9063161864862535,-0.17027612261546013
13.959342790882744,-19.3093437483477,2.5631796784512417,2.9321636600299423,-0.09172604463948547
13.712703299512114,-19.14765579729094,2.554133777000867,2.974494776998271,-0.023704493780317942
13.457798358216182,-18.98711082710175,2.5980166382105563,3.076257148301645,0.03262929283570385
13.184326782188453,-18.83436174004509,2.663649496095003,3.2078614389503164,0.06067835974699455
12.887897303584333,-18.692298720730466,2.730252815713392,3.406331708366101,0.073308382896642
12.56322872141108,-18.561429390478004,2.7984769553335176,3.619700456570711,0.06936396502208844
12.209589514941934,-18.44445353351116,2.8626997041651636,3.870321287988474,0.0559683677078017
11.8249194342651,-18.338105076751418,2.9020970736059106,4.1488327161925405,0.031221669452285047
11.409981743305998,-18.23555640873955,2.9106938684557817,4.433868138373015,0.0036707719519170935
10.969342551575474,-18.127477268928434,2.8903527908258217,4.648363149868387,-0.02026762332111845
10.514338443306356,-18.00401335736738,2.839440901221349,4.783968917170955,-0.03822386322056914
10.054491661452342,-17.858123727140494,2.78411317824503,4.867279471048549,-0.04805923101987599
9.596294197633837,-17.686798538403384,2.7276771043346306,4.918462016787222,-0.04586460037249142
9.144127462312799,-17.489513969640466,2.6736369496819936,4.949906448091092,-0.03740667851284679
8.698231833921783,-17.272461388571937,2.658467551189504,4.969224601296524,-0.017822019458517836
8.254008464526432,-17.048462162775092,2.6783966707377083,4.981092872649953,-0.0017627409576125089
7.807178985614341,-16.827537116520155,2.700049408551958,4.988384245868747,0.011112230309034018
7.35612887915644,-16.6139834871953,2.7204675458008976,4.992863762879484,0.019150815072071902
6.900584084509873,-16.409314271707654,2.7441250499275314,4.9956157921677065,0.02656357115906205
6.438415223234559,-16.219540716912324,2.7975460642294054,4.997306524714338,0.029023980879597195
5.969705105813077,-16.046133800805475,2.821888773377903,4.998345240601726,0.019996313851006517
5.496202866008511,-15.885980659438193,2.8409173226489948,4.998983384521568,0.010672747038545434
5.019376213556847,-15.735819174589833,2.8536194613378396,4.999375433653941,-0.0007436842958997297
4.541714027843637,-15.588212288553413,2.834931660533561,4.9996162923653005,-0.014023014150675606
4.065532389776509,-15.43584794677182,2.813509098116533,4.999764265958523,-0.02155777491854785
3.5920795396376484,-15.275175708108089,2.79303800920769,4.999855174791206,-0.025747052387945415
3.135607090032756,-15.110317142900174,2.7676659111090176,4.615821290145168,-0.027928727529587624
2.7211796075552677,-14.949306554410299,2.7389490225181183,4.2315415178160025,-0.02600834858742687
2.3501709567107563,-14.792960552668722,2.7108633185382547,3.7326745160544874,-0.024298267484766153
2.0257335484436627,-14.644648293870068,2.687192067287612,3.374178453466625,-0.024836351821991932
1.7302717760274235,-14.499800734435505,2.6698769373223064,3.2012252482834773,-0.023073758118843008
1.4527044032128356,-14.356362312827622,2.6509326308489594,3.020797221398528,-0.027612153274744
1.1948572704498672,-14.210462018338447,2.5972071269625463,2.894917913197612,-0.09854708102752216
0.9626844003835042,-14.042440704397674,2.444585565830037,2.842358093887502,-0.21295361378890804
0.7753261834115073,-13.831372120142607,2.181681117019078,2.8160657540192147,-0.28079844333125886
0.6510149875419466,-13.581013617542755,1.9105384983517104,2.7869544710564886,-0.3152690586076373
0.5991580208935696,-13.309128864819364,1.639095742407501,2.7639436563575432,-0.3358628554925991
0.6262342507028731,-13.035827516006941,1.3489200974280822,2.7460775649139944,-0.3441260878356706
0.729811620811002,-12.782937243913793,1.0635805455756673,2.73765724988766,-0.3337510152344725
0.8965332348697044,-12.5668726871879,0.8098299081022977,2.734940455361435,-0.3039612650629562
1.1071524926541418,-12.393181122557554,0.6060131453085238,2.734461803458538,-0.2587367471096824
1.3448707697531648,-12.258583843228022,0.45214509109214296,2.7344037540880897,-0.20317680786899583
1.5978465221620717,-12.154704296012515,0.34499846616439794,2.739575520661636,-0.1582904477111168
1.8602934258093524,-12.074832074268526,0.26078774705489144,2.7511707706777515,-0.11859593583898018
2.1290727038698565,-12.012738447662365,0.2037002426191911,2.770508782620269,-0.08547256996331264
2.4034225353191654,-11.9620992936408,0.16604969659559823,2.8234492557036175,-0.06622548300315156
2.685756597093782,-11.921003509589758,0.12844139518613457,2.892637445198923,-0.057580887929916016
2.97674709235054,-11.889664861806947,0.09015893020588309,2.9728908767782714,-0.05483011676441825
3.278244088279726,-11.86919783667537,0.045652076034138844,3.0955300305392837,-0.062055786430287044
3.593575737045257,-11.865339228749185,-0.01998651994891467,3.2271248368873104,-0.06372937378449735
3.922401798925256,-11.881481153959916,-0.08184587926473544,3.3828824750993687,-0.06377793154546113
4.266594214663436,-11.915028569815197,-0.12365967775855526,3.5571994919431105,-0.062421888136588013
4.625858101158312,-11.965245434043302,-0.1665911510247791,3.7107947367276672,-0.056916623293907294
4.997568270486276,-12.033119751260248,-0.2110231413838213,3.8685390556498467,-0.051427342006987814
5.382088931437714,-12.120470559300097,-0.25616336070201423,4.041671273576748,-0.04270893739355974
5.780038691750562,-12.228944334915026,-0.29866789161385676,4.23523995363406,-0.03260276409600605
6.194161781966971,-12.35526419185885,-0.31459619682229367,4.455327557935204,-0.01742973650550852
6.626108387679247,-12.4954017270259,-0.3232705052935645,4.637699824278122,-0.0013611346515373154
7.068856657377392,-12.639119387259287,-0.3018217229106803,4.63643733903143,0.01693979789951764
7.500312383965163,-12.766014397513045,-0.22896256570140253,4.279536817137674,0.04395009885222961
7.905768167716596,-12.85424371743192,-0.11808031228237705,3.997477056020702,0.06025384231246807
8.293353640474972,-12.897836309384937,-0.015195176131151978,3.784282314452187,0.06279435071900194
8.664493087082896,-12.900588618509182,0.07054855569115578,3.6255675350736887,0.05831527061340559
9.021149570117318,-12.873782052540799,0.13016765018685225,3.5205131644612715,0.07258042886844923
9.366117647316635,-12.819922598165473,0.21455251193592745,3.4608072453591037,0.11289901041884742
9.698457790312263,-12.729250312474665,0.35518778129350265,3.4330807559335623,0.1676938093256934
10.00924771246722,-12.587202983013178,0.5505871927938594,3.4068828841690797,0.19523773150414023
10.285229725078123,-12.390126597369973,0.752205670756317,3.3843538019040693,0.22210946507356888
10.512089874226813,-12.14061775549355,0.9732682869724965,3.3726595789611906,0.2206791902348831
10.68247156162287,-11.850611973872827,1.169428098489286,3.364959344372444,0.20829666129592653
10.793130301765679,-11.533438043158807,1.3532589289069805,3.363282173606146,0.1734829132771305
10.852641642363546,-11.202658029390376,1.4793916685731867,3.3639617872327148,0.13185756574831053
10.877413144508747,-10.8671175808033,1.5490440156893457,3.368257014877841,0.09036016486377539
10.880803648219432,-10.53005472917956,1.5938828834893226,3.3753592769921896,0.06664200687472104
10.867838147079345,-10.192185573557342,1.6381235126153348,3.391557611930402,0.06276725152416353
10.839554475109669,-9.853330449117076,1.6825705756385751,3.412655649502217,0.06281780070595479
10.795059467832102,-9.513648844006061,1.7367005322870341,3.4470554813002012,0.08032915808128602
10.722896625223587,-9.174736954794398,1.8450733283301513,3.4931853474391645,0.10948304892221014
10.610908269842504,-8.842382439171708,1.9837712626919861,3.526066926653047,0.1357353948306811
10.45082012053004,-8.527659580054927,2.1476581918019684,3.5416600858675737,0.13774020489849864
10.245928332342949,-8.239113254170634,2.289072577903447,3.5392638133336014,0.13396939332588695
10.003079095576531,-7.982633882556088,2.422828715204056,3.5281793993792476,0.12958219584602398
9.73111880966208,-7.758439128351821,2.5322177709218647,3.5254586578303684,0.11540369551119634
9.435805643261304,-7.566237150048895,2.640245472973237,3.525124635150218,0.11472572965605873
9.121271105795437,-7.407255011536462,2.7483074743665976,3.5279104254810982,0.1168415930957896
8.790837651497146,-7.283587985692445,2.8627091899126462,3.533368683104488,0.1264384245125127
8.446903893920569,-7.201489407081837,2.99416602537296,3.546323375027882,0.12652447655898913
8.093811963203718,-7.160623849197765,3.1088509465446412,3.572707174292675,0.13139114034943894
7.735029801759167,-7.1649331328362695,-3.037565601876477,3.617465502251635,0.13368080872445784
7.375012488293487,-7.216904875252568,-2.9089261667980137,3.668640196170328,0.11449250636096367
7.016310815534845,-7.306753646494762,-2.8364515906822936,3.743776729472367,0.08608503695254897
6.655684069747862,-7.422635179936124,-2.7942798026866495,3.851581483713976,0.05606369125908469
6.287488646374613,-7.554529979829505,-2.7847268703341315,3.9938791446965647,0.025915210636086504
5.904531641723379,-7.692866667067889,-2.8040016192165194,4.180417729102472,-0.003699087216009707
5.498322574195769,-7.828332024009457,-2.849630267314561,4.423778215033834,-0.02761908100127881
5.063892454826642,-7.95406714078329,-2.903610371868128,4.63634569867685,-0.04652159101022594
4.6050446896077935,-8.057708923763863,-2.9915489705573477,4.7765858940526975,-0.07139409519619277
4.1276037289333525,-8.121232299834508,-3.123372133647066,4.862743648144345,-0.10663162044881717
3.6391578770682673,-8.12366309931027,2.990800921833629,4.915675395495542,-0.12390215110896116
3.1518606446081576,-8.051174503738707,2.8234845100520736,4.948194463653593,-0.11701282294496387
2.6783657962927863,-7.9055408669665574,2.691267491862744,4.968172829129639,-0.08733436377927953
2.2233386880858927,-7.705043388990392,2.6318915603346977,4.980446707494008,-0.04141442394884041
1.7793029850965918,-7.478690897826717,2.6532768687896757,4.987987268821907,0.01208124200609376
1.3311575828459523,-7.259275683311917,2.7492621800916957,4.992619876662055,0.04832434258174181
0.8687057249114368,-7.071154509205452,2.853279999146751,4.995465958600439,0.06082126078143224
0.3909062397821935,-6.925662678977307,2.947596042872168,4.997214473190815,0.058876703860364574
-0.09745877880805742,-6.819999663809159,3.005608185941627,4.9982886879671105,0.04237711523650483
-0.5910469181104469,-6.741246206662589,3.020252558703187,4.9989486409305925,0.01800169999182778
-1.0860873514982654,-6.671609304466554,2.9997222250110536,4.9993540886339956,-0.0025260408695784217
-1.5806332822353582,-6.598359788434798,2.9740704354528242,4.9996031788711655,-0.01927411996836237
-2.0727269569276063,-6.510167028563287,2.916356291947688,4.999756209572121,-0.029264682297590612
-2.5600578100409273,-6.398655599428491,2.8583473843116156,4.999850225281854,-0.02958782063916899
-3.0421027405267127,-6.266021842996689,2.834891363119147,4.999907984630934,-0.02040623548077592
-3.519884375450616,-6.118699803401913,2.8162516642124373,4.9999434695771825,-0.010632621414153871
-3.9899496351464996,-5.9626087716445575,2.8022786543443776,4.8770970818099855,-0.0008188092656240507
-4.436772994766161,-5.811126743532842,2.820291865075758,4.4793893619508065,0.01020831908337838
-4.84928185807591,-5.67574790034345,2.843632852869071,4.178057412323036,0.013570777765584841
-5.239167741631351,-5.555579869331844,2.858050676727146,3.9597825565907963,0.005261124103052174
-5.6113362828245865,-5.44234083144983,2.8385057742607023,3.806184075736022,-0.02593951551849341
-5.968108827429348,-5.322351126676236,2.7759369937649203,3.717176517558656,-0.09074614800014963
-6.305915442168874,-5.1723551486205865,2.6272848705219465,3.6795346302437517,-0.17215591436938804
-6.609394272716335,-4.966970792089685,2.3833571538608385,3.663522799934061,-0.24486930095205392
-6.849629955176209,-4.692435207995946,2.0803972662586743,3.656291607393817,-0.2715011164231537
-7.0005219334042295,-4.360969851867873,1.7820195770533527,3.653519614178438,-0.2615187959987545
-7.057161671881613,-4.001151408313646,1.5417252504146142,3.6502037415615645,-0.2318635182010863
-7.030133098436941,-3.6379854031128236,1.3453799789994225,3.645272499460556,-0.1777984699882299
-6.943694173134618,-3.284380222161804,1.234298759160279,3.6396680315457837,-0.10843534410075048
-6.8240408293078225,-2.9412780967604046,1.1881746125226968,3.6264586090825235,-0.03682126554228314
