X,Y,Theta,Speed,Steering
-0.2151340186609817,-0.2145998350290407,0.009570043609469244,4.392306813372849,-0.004148020079665085
0.26204468203898995,-0.2064755762073149,0.006941975957640714,5.168839362894293,-0.0030834127068524895
0.8217122627396046,-0.20314669814999162,-0.001405712407134519,6.118663006188672,-0.00323710044514777
1.4691283224327087,-0.20446091474297823,-0.012148982468353853,6.8441846530382655,-0.00223528649399974
2.175359790699825,-0.21085090442627077,-0.011967165642093458,7.289915033475257,0.00019224985521569256
2.91674201539284,-0.21547517328090743,0.011478330232437575,7.543108698152566,0.0011455657967831905
3.6708730044874196,-0.21248625133558774,0.018768436556514376,7.540301139014037,-0.004607903999006628
4.400872299584717,-0.20780279171148155,-0.00801119881743453,7.148058811436695,-0.012442052537411898
5.087053695155689,-0.21165410790445782,-0.04984405528643633,6.676756653478615,-0.014427817383163517
5.729608580865811,-0.23350344870276135,-0.098974741314666,6.273082971903697,-0.00853073952333854
6.329491081082187,-0.2766474071724704,-0.13108531551714298,5.850932747878866,0.005090283369544609
6.884180025509612,-0.33080512602823603,-0.10837566275039225,5.395356033077668,0.022622994307360998
7.392212808354676,-0.37455595546792586,-0.030067536904993444,4.905382066284185,0.03304995174655656
7.855453948678326,-0.3906802993580081,0.04691185707820879,4.465197528746282,0.025694034216463806
8.287277647012122,-0.3812311182384875,0.06287335073280717,4.227343130130559,0.0018129890359923732
8.700578416532919,-0.36440672240075545,0.031969645391723214,4.078890693429988,-0.022635834646736602
9.103417275244377,-0.36261911366543387,-0.06068423396873282,3.998136866430387,-0.08886806788047968
9.498953268016454,-0.40664468481106975,-0.24542563776639553,3.9750988809186074,-0.16267442475545457
9.875509190885328,-0.5289981637623619,-0.5168259808798672,3.9650254839903716,-0.22204354893199776
10.207639286514747,-0.7429810327360427,-0.7926435734030824,3.9605089462408154,-0.23204828600534172
10.473957523328181,-1.0347070541882262,-1.0348387276480537,3.9597724319542755,-0.22343571485705913
10.667163657322433,-1.3795797557285034,-1.227400254859565,3.9596831098594483,-0.18570166902462293
10.797369632453341,-1.7532228400371879,-1.3516386205456092,3.9604696266998896,-0.1360090117182518
10.88562220515554,-2.140073449694273,-1.4070779742933441,3.977503411934538,-0.08138125880648749
10.956117789117064,-2.5329463166660307,-1.407330476243046,4.006147082479093,-0.03342295533733332
11.02732561529101,-2.9307186020029046,-1.3770724770211118,4.077322599344153,0.0026455403554026258
11.112919173210262,-3.3354172955524954,-1.3275444141903368,4.198675896752218,0.026472916424268977
11.219685437905317,-3.750195483863503,-1.2795543365277802,4.371487860339353,0.034296238793928034
11.350428380174147,-4.181218746391468,-1.245833522730868,4.642696019429949,0.032723842590127034
11.501008248403883,-4.6341800463574625,-1.2326014287018785,4.909468108546696,0.021945677872790958
11.666440452574399,-5.109921478477086,-1.2324212638624277,5.169407717401945,0.009842198112742213
11.839374017119527,-5.612474362467489,-1.2516164182345026,5.466038747221569,-0.0036729102961892022
12.014873866995659,-6.144080248259614,-1.2690088665863462,5.735956271962855,-0.01102485906660999
12.190787971789913,-6.705333002090831,-1.2850776769278975,6.033598423152847,-0.016136560243780157
12.366869693784075,-7.29851373054677,-1.3006711742283121,6.348050561366802,-0.020329994791360474
12.542809338166787,-7.925215061123235,-1.316063927298393,6.6772167108552445,-0.021728041498677346
12.7186461167695,-8.588501607901605,-1.3306275388578384,7.054373921222175,-0.020485487975989123
12.894084813423932,-9.289819329945036,-1.3452479052985291,7.411420750220102,-0.01634221079586034
13.06642009788502,-10.022071612512878,-1.362517735973775,7.638401343280526,-0.011937539587476398
13.233242156713938,-10.774470776420836,-1.3651307318113686,7.777848796758934,-0.004946472642065957
13.399601091379674,-11.530540183063712,-1.3362711747338003,7.718583418052839,0.004593261127340381
13.570187378403205,-12.260571868469057,-1.295568126892309,7.356834791583368,0.008342831254520653
13.751507282988763,-12.95071621090821,-1.2458497062974072,6.996149965558844,0.012369867176897299
13.951267032669158,-13.604116540942831,-1.198095150401651,6.729811426419431,0.013560302631456952
14.169837681476382,-14.217330898466265,-1.1473018213466335,6.3718398038844475,0.01479266762885731
14.40605749796383,-14.788251760674283,-1.0985093259532708,6.057306268492954,0.01018675864492499
14.654680298351492,-15.31639990935559,-1.0705720125414282,5.698765020237803,-0.004274408648453008
14.899645692303368,-15.802367208215667,-1.0957145669159518,5.279707091492036,-0.024064317631663796
15.117900641318805,-16.24996809513905,-1.1739168470863133,4.782820382969734,-0.037863703468994904
15.295300735886485,-16.668049149256458,-1.2463125363618088,4.390001618927168,-0.033512877882321906
15.431554689062121,-17.05009931073864,-1.2905492752575738,3.823265262605932,-0.01925719416813424
15.535779990497693,-17.392816718849854,-1.3036315562957441,3.429663138110427,-0.0052484836407126435
15.6278797646391,-17.711696028186406,-1.2887572404870098,3.249134890498875,0.0032984364934159943
15.716947621960625,-18.0108921255873,-1.2732274860533717,3.041064909860058,0.004182520050504939
15.801201272511157,-18.295839805164732,-1.3037521936462109,2.927917549608559,-0.16786260313358134
15.838931609561737,-18.58337444966956,-1.5595863837415869,2.8959161814710512,-0.27788026311561187
15.791039384192862,-18.86729806339218,-1.8883927790028587,2.888538118273183,-0.33894013155780595
15.657876119418443,-19.12239599903161,-2.191774945600197,2.887400934333137,-0.34253847691087624
15.458593280235155,-19.330114504963767,-2.466299330069244,2.8880609745164487,-0.34109072115702005
15.210152876176032,-19.475705723675656,-2.740718945201271,2.889028254266319,-0.33500151050846827
14.93174830987777,-19.55010252429332,-3.0023821669431294,2.8901221350382627,-0.3169455390642868
14.643303551957963,-19.55473373530097,3.051160503903192,2.891450375027868,-0.28166265878994445
14.359102556394033,-19.501671499311552,2.873731600786544,2.8981605591291606,-0.23309634017295772
14.084761440277337,-19.406468209618883,2.748680637279726,2.9135355965770167,-0.1761324048269911
13.817597970361506,-19.28356046737806,2.676392004300808,2.970376451086738,-0.11702502072033999
13.55067020520602,-19.14502768156392,2.6480016881599067,3.0460554730238467,-0.06036987882931869
13.275583349860636,-18.99700757476846,2.647809098958523,3.204761506168595,-0.019573084882419815
12.984549974575186,-18.844587474079393,2.672437488614798,3.3692974987750186,0.01416948659220025
12.670404490028366,-18.692543893992774,2.7131715520092388,3.6161048923978587,0.036202388496670554
12.329406135354825,-18.543053776328197,2.7556636025497516,3.835275246259478,0.042018464585561396
11.960241017358705,-18.398486971671964,2.7986592155523486,4.099786630220729,0.03965844310735832
11.560373200324804,-18.25903486232736,2.831174219277991,4.375784116779648,0.029103653748917723
11.130939559424762,-18.120565838633485,2.8447840556906163,4.65400873204611,0.015192165972637233
10.671291110805692,-17.97875044983185,2.845015859415359,4.9729242562069995,-0.002027447912348241
10.183566164287871,-17.824838026645864,2.8146455975778046,5.26166532057972,-0.01711798613133282
9.672041768321098,-17.64701049322864,2.7638153110467982,5.576288851780568,-0.024695672524655654
9.139765246983481,-17.438546402096257,2.726827195479857,5.862885546466359,-0.023172386088454518
8.58595093820464,-17.202914621782767,2.7160858789083813,6.180855254686555,-0.014816250223257756
8.00655644339145,-16.943909545863544,2.7034094395452533,6.519017209912211,-0.007998297473770316
7.39916481349845,-16.66378358039288,2.7037747631727407,6.865428386143556,0.00358350165673868
6.766639831054627,-16.374732556268164,2.741764905151687,7.047163650477313,0.017935685714752462
6.120783244876633,-16.100027945500088,2.804376339960524,7.0009037800364124,0.02256970460579825
5.491269240529696,-15.8604426356379,2.860276999027343,6.568529402102967,0.015386892300992475
4.890646664509892,-15.66300794540371,2.8996215391434563,6.167333312695698,0.0012356606728293794
4.324005355329937,-15.497859772209612,2.881482768195921,5.734379435443615,-0.0188722506758552
3.8016259751575383,-15.343558581494817,2.8035773338439136,5.2607017001155265,-0.03281433293291233
3.3334065220838327,-15.18155887566773,2.717826741157834,4.752935886678772,-0.03061219292360138
2.916729426792504,-15.006527181310807,2.6711378092504616,4.372878146205396,-0.015635769754838078
2.5514862026545395,-14.830167869720437,2.6504370025841086,3.8424102824511457,0.0012598653444030328
2.2291156127454204,-14.665397049018237,2.66307477082906,3.4798025824367227,0.014159974413987421
1.9280792470560344,-14.512504963593797,2.6795092617657637,3.3108957126571346,0.015130991181675702
1.6432434158967957,-14.372737136146538,2.6955173105531696,3.0853925609195976,0.00815958387753228
1.3738300149895926,-14.2425651871665,2.6849264070046233,2.933147650480257,-0.018583145232478955
1.119221450925224,-14.104813433579476,2.6006587114735344,2.8726666035251247,-0.1502409267887733
0.8980514643424414,-13.927951989626342,2.3574973106242623,2.817471528863044,-0.2593764144827844
0.7356948465174936,-13.700583307859333,2.061661795331801,2.795011218617396,-0.3164624297467484
0.6470527011732454,-13.438121051609384,1.7675947140384276,2.7710507280070993,-0.34724464995908505
0.6386326472693706,-13.163344339941458,1.4761132255323557,2.751251316940683,-0.3600965053537942
0.7075503968751444,-12.89833906579834,1.2056548763999382,2.742757942764845,-0.3309798595945145
0.8381566794351014,-12.658239525324378,0.9783193864435779,2.7366338053047485,-0.3012365125178674
1.0163224043469872,-12.451244772492835,0.7786366519576629,2.734667167518647,-0.2698197674159365
1.229763860343606,-12.28084815000722,0.602352251366091,2.7344286599838563,-0.24440525829690557
1.46785785469126,-12.146674748436142,0.45281195443109257,2.7362759028393615,-0.20776744648055856
1.7227679724880185,-12.045651358446143,0.3267421071843925,2.7513800234434838,-0.16850394103865296
1.9888131458445504,-11.971541604799658,0.23766635468951666,2.773975908209897,-0.1302548334595554
2.262176585495088,-11.915437547966475,0.1750849992659471,2.808894416430348,-0.1010703824309462
2.5425615917141298,-11.874528348775144,0.12468552624408388,2.8596531612897356,-0.07958170833743501
2.832110319930637,-11.845798306517889,0.07446948321838172,2.962565027428827,-0.07579006731835845
3.1331601922006596,-11.833869511082163,0.009808828356316461,3.066144163930378,-0.07150905958025919
3.4472752710915917,-11.839454736895688,-0.042945891500291176,3.220794995418464,-0.06732539216780775
3.7754360222359282,-11.859220726353378,-0.08349493636939023,3.3574915710396023,-0.058116648963007535
4.117496283983591,-11.893615739611832,-0.12499873653580564,3.5219509446023918,-0.05558171961352219
4.47475572536059,-11.944109555500125,-0.1675963473029285,3.698263328061434,-0.0536653576532312
4.845438401005233,-12.012147378438403,-0.21210150490773774,3.842672327803802,-0.047115104297973116
5.228089576536346,-12.09811827639202,-0.24580308371813003,4.00468869244233,-0.03810881447334219
5.625282890922911,-12.197716927362139,-0.26032812762196333,4.188917291436034,-0.028633243515545616
6.039760481869958,-12.309149690466263,-0.2753093458300333,4.3992706347095165,-0.022622787368071114
6.474165419453031,-12.432958225820512,-0.29074483268730794,4.6396742647096865,-0.014891051034339449
6.918100511242637,-12.564819686373342,-0.29289574009219543,4.6255863134207775,0.0008463238254530188
7.346406080912568,-12.688813851018681,-0.25837858241146816,4.3535376624378355,0.021985475986858925
7.752647749288471,-12.790603961238496,-0.19392351458326676,4.083872065318387,0.03955165816672962
8.140300457824852,-12.862576772461082,-0.11506770981187776,3.855047687917616,0.05418881970101105
8.512871416152489,-12.899090909426663,-0.02185004693311956,3.6750836095207355,0.06187426727342457
8.872699546932875,-12.900753728582563,0.06468303655311922,3.5517614458509197,0.06948425821462915
9.221888289326289,-12.868813754668617,0.16640740998449075,3.480651988380721,0.10514332391754372
9.558260563427414,-12.79297121145036,0.32717263181169426,3.4333609668762444,0.14961430339871518
9.872509077792353,-12.65899682781261,0.5374615947809593,3.414808421816291,0.1932769910612557
10.149841462700387,-12.46331773889462,0.7541344481960506,3.39120075918193,0.2008438208008324
10.380052936951065,-12.216638828455954,0.9507832530407165,3.3725635174987834,0.20337696648174752
10.557159666713423,-11.930608367249812,1.1368108949864795,3.3662848791566486,0.18238876929401593
10.683345095798943,-11.619033330613876,1.2810251189778086,3.3634429302212654,0.15375380457449317
10.770442568842629,-11.294330139136912,1.3736954927097638,3.363098267752472,0.11745299465071475
10.82857809686361,-10.963018315748624,1.4477693421295277,3.36620069006155,0.09396736858526678
10.861114739910718,-10.627609482910163,1.5217865926104643,3.3751922697979295,0.08387445120082944
10.870328379359577,-10.289687616351147,1.5820569850959159,3.3869282505188396,0.07346873260721493
10.860196284420708,-9.949958232846571,1.640193052520122,3.4123388687118426,0.0795406882452123
10.825491551653869,-9.608582107761029,1.725843198107725,3.453188293864191,0.0996300130127095
10.758638570366978,-9.267967311731866,1.8303724845323706,3.4926696912472153,0.10799027538344538
10.654933702554208,-8.932663062516632,1.949903581677201,3.5317213434641324,0.122817861640197
10.508873869292467,-8.610736780246807,2.088178466657316,3.5437830343458185,0.1391062294784517
10.320405850884065,-8.310835875860073,2.227789819470401,3.5458546861081515,0.13482936647047455
10.09334781898615,-8.039790552802094,2.359972412661292,3.5315438695250503,0.13092322060389638
9.834769717128932,-7.800139031763938,2.483436426506325,3.5258626301436204,0.13225451150022483
9.54765628731578,-7.595922774286704,2.6083595173847756,3.5251736276191097,0.12416294972791245
9.238813042591536,-7.426223670862238,2.7164719616468953,3.5264186567679423,0.12322783913573634
8.912215719054538,-7.292911493098844,2.838514175346833,3.53338711148577,0.1265016320689057
8.570029560307928,-7.2027944875697765,2.977074923689658,3.5492344410099164,0.13587935092497663
8.217225236346282,-7.158030725211962,3.1015550041664697,3.5681463118009913,0.1292814390796973
7.858755844724138,-7.154320595318488,-3.074517950841534,3.6060561201935686,0.12553789847484806
7.4970925844328695,-7.18998018881037,-2.967767550085658,3.666938322322812,0.11821323441961669
7.135032371349481,-7.263771711486174,-2.8716438474212174,3.7270133964714667,0.09875746284827014
6.7727163949305815,-7.369150870873721,-2.809240481990208,3.8228544390196686,0.07248350104725997
6.405857848096809,-7.497536290966688,-2.7760526122589506,3.9537289915937976,0.04326548982155086
6.027983426780705,-7.639942975012609,-2.7760181146133056,4.126083605367073,0.01246559689629375
5.63061261991239,-7.78709406368281,-2.8046633524223465,4.353436822863966,-0.01699700859248836
5.204967125079749,-7.928392849291117,-2.866129994420496,4.622567370614452,-0.04091060217365524
4.745017774719726,-8.049897549201601,-2.9574747320765766,4.899809656136558,-0.0783894717938012
4.252344552500637,-8.132844845207993,-3.0906681620466463,5.101312764609468,-0.10743072029350487
3.7361371805626016,-8.154800323631202,3.0300327158797624,5.243026343574939,-0.12322877982925133
3.2096976369529027,-8.100005285297746,2.862709813687412,5.355133937277308,-0.1280242014462471
2.6877215903737275,-7.963609991358745,2.7210947708613675,5.445595928359354,-0.10759434495326006
2.1771168421979286,-7.761109885898108,2.660485282421047,5.5463415830286955,-0.06635220321182804
1.6697981785290323,-7.520663009878889,2.6689946058972303,5.685307674256212,-0.018976447318406378
1.1518930082797996,-7.268219679731846,2.7101749947304494,5.84096345587945,0.014814156934400892
0.6090621401729702,-7.023766553552908,2.785194252108659,6.071520059531581,0.044141612805010125
0.027850727167953525,-6.804102651891638,2.874015263214643,6.3636153576220895,0.06146143694143079
-0.59721152229865,-6.619661105168307,2.953576955674796,6.679888968412303,0.06399121337699902
-1.2531681092315023,-6.477766870786165,3.0358564743445386,6.746805791967889,0.05212593131547305
-1.9054343889103769,-6.38320799953932,3.1067822122268547,6.493892111062567,0.02473777557585734
-2.528173126670836,-6.325421990718933,3.099970221484963,6.102832133949015,-0.014478889888864846
-3.110304440725619,-6.276469771291389,3.0072919294358473,5.676859253035503,-0.04922238290011248
-3.644614938648124,-6.199934461773456,2.847847898349537,5.222098488312364,-0.06634565146621067
-4.120787213782939,-6.072377747830981,2.685266886188803,4.745992665780914,-0.054098206914767494
-4.538540038408241,-5.894849354406634,2.6001139058596623,4.412725111248664,-0.016814623161426456
-4.909019369178777,-5.699451163391723,2.6214202200789627,4.046907231077157,0.030520186197251158
-5.258236970947968,-5.51939880483295,2.7133949459378592,3.854993624388531,0.051772622475574126
-5.604530718717913,-5.366891101097303,2.776066494362711,3.739645328264657,0.03500852303859424
-5.949148441884208,-5.227841751637148,2.7508974195965283,3.7013768449122453,-0.035587084094525816
-6.280992712086454,-5.068107605857077,2.60219876301749,3.674965164139504,-0.12532534381788132
-6.579966378876607,-4.856954560791038,2.3713402204280607,3.6617481708635076,-0.20183339993441574
-6.820038968738439,-4.5822204729667915,2.0990109299777875,3.6556618600220605,-0.23270380596056683
-6.979747301269049,-4.254844161426128,1.8272748052899623,3.6520321703434186,-0.24935647924177362
-7.049171827965243,-3.8974960641470595,1.582748723703627,3.6473097127249843,-0.2270525921439004
-7.038786607988439,-3.5336344320823736,1.4025538359466456,3.644346757765019,-0.18372145602369666
-6.969999414535423,-3.1767530695537993,1.2858584997560838,3.632274054950198,-0.12401214917447882
-6.867323053164907,-2.829231305230259,1.241754747505295,3.619087332905854,-0.05779404303184764
-6.757577100801264,-2.484712872310786,1.2698026614730282,3.613692506643431,-0.012051111159486757
-6.657114991241536,-2.137705149587351,1.317775055269632,3.612238772361145,0.010228381502343684
-6.568749023381431,-1.7876889996702898,1.3349342242729587,3.6086626382301996,-0.03327556477086509
-6.468354578141091,-1.4412175285003699,1.22850446216761,3.6082289361312765,-0.11577818496483938
-6.319545454172428,-1.112853571204864,1.0054288596281256,3.6133984877651524,-0.1920931401244216
-6.101716344052349,-0.8250811814951132,0.7519978400094616,3.621441598654517,-0.21931901405186532
-5.822066930318664,-0.5958971041337996,0.5153870812569755,3.626843132312026,-0.22834681878560503
-5.496879747208467,-0.4364985715932012,0.2992384946132697,3.630016798390929,-0.2035782607381778
-5.146631145837125,-0.3424994489698069,0.13702864258680442,3.631836282285573,-0.16645123559754513
-4.785660012344869,-0.30220808756548523,0.021731889018531108,3.6369439200113116,-0.11945074042028628
-4.420584865693156,-0.2963820028158385,-0.02955105561485041,3.6672629076407164,-0.06972428154009146
-4.051831388434404,-0.30417203550371513,-0.029856449680596666,3.710365982380365,-0.033007540954541226
-3.676149953637452,-0.31197231963682465,-0.013397868120766066,3.8068306188366927,-0.009734667203452724
-3.288175822141982,-0.3152641993288207,0.00217769640991822,3.955966260557681,0.002738627394452434
-2.8828716918799864,-0.31283214080197197,0.017352608973019802,4.15428462113332,0.008782196099479552
-2.4562382560224747,-0.30405758499261243,0.03254818442301375,4.384856835357652,0.01034776383352451
-2.006186971824859,-0.28825593195782473,0.04798531207300534,4.6266111109993036,0.008490564588815763
-1.5320371551045067,-0.26635004023665865,0.04916984522535732,4.871387136412306,0.0036942509697962416
